-0.24750,-1.10000,-1.02000,-1.27500,-1.07000,-0.90000,-0.73750,-0.56250,-0.40000,-0.24750,-0.08500,0.08750,0.25500,0.41750,0.58250,0.73750,0.87250,0.95500,0.97750,0.99250,1.02250,1.07000,1.11500,1.14750,1.20000,1.28000,1.49750,1.76000,1.74500,1.34250,0.78250,0.44500,0.35750,0.35750,0.34750,0.32500,0.30250,0.30250,0.31000,0.31750,0.32000,0.32250,0.33250,0.33000,0.33000,0.34500,0.38750,0.45000,0.49500,0.53750,0.60250,0.69500,0.77750,0.81250,0.79500,0.76750,0.73500,0.70750,0.66250,0.59500,0.50500,0.44000,0.42750,0.47500,0.52250,0.57250,0.61500,0.65750,0.66500,0.65250,0.64000,0.64500,0.65500,0.65250,0.65250,0.66250,0.68000,0.68750,0.69000,0.69000,0.69500,0.68000,0.64750,0.61250,0.56750,0.51250,0.45250,0.42750,0.43250,0.44250,0.45000,0.45750,0.47000,0.48250,0.48500,0.48250,0.56000,0.81750,1.08500,1.05500,0.69500,0.31750,0.19500,0.24500,0.30750,0.33250,0.35750,0.40250,0.46750,0.51250,0.50500,0.47500,0.45750,0.48000,0.54000,0.61250,0.66250,0.67250,0.65250,0.62250,0.56750,0.52750,0.49750,0.46500,0.44000,0.44750,0.48250,0.50000,0.46750,0.42250,0.36750,0.30000,0.23250,0.15750,0.10750,0.07500,0.05750,0.03500,0.00750,-0.01500,-0.02000,-0.01750,0.00000,0.02000,0.02000,0.00500,-0.02250,-0.05250,-0.07750,-0.08000,-0.06500,-0.03750,-0.02000,-0.01750,-0.02750,-0.03750,-0.04250,-0.03000,-0.01000,0.00250,-0.02000,-0.04500,-0.04000,-0.00500,0.04000,0.07500,0.09500,0.09250,0.08000,0.07250,0.05250,0.02750,0.00250,-0.00500,0.00250,0.02250,0.04000,0.04500,0.03000,0.00750,-0.02250,-0.05000,-0.06000,-0.02500,0.13250,0.45000,0.70250,0.62000,0.23750,-0.12250,-0.24250,-0.20500,-0.14500,-0.11500,-0.10750,-0.10500,-0.08250,-0.05250,-0.02000,0.02500,0.07250,0.10250,0.11000,0.10500,0.10250,0.12000,0.13250,0.14750,0.14250,0.16000,0.19750,0.25000,0.28250,0.29250,0.30000,0.30750,0.30750,0.27500,0.22000,0.16750,0.11500,0.06750,0.02500,0.00500,0.01000,0.01000,-0.00750,-0.03000,-0.04750,-0.04750,-0.02250,0.01750,0.06000,0.07250,0.05750,0.04000,0.05000,0.07500,0.10500,0.12250,0.12250,0.10250,0.07000,0.04750,0.06000,0.09250,0.14500,0.17000,0.17500,0.16250,0.14500,0.13500,0.12250,0.12500,0.13500,0.15750,0.17000,0.16500,0.14500,0.10750,0.05750,0.01500,0.00250,0.02000,0.04750,0.07500,0.08250,0.06250,0.03250,0.02250,0.07000,0.25250,0.61250,0.87250,0.75500,0.33500,-0.04000,-0.16000,-0.14000,-0.10750,-0.08250,-0.06750,-0.04500,-0.02250,-0.00250,0.01500,0.02500,0.03750,0.05750,0.07250,0.07500,0.10000,0.14000,0.18250,0.19500,0.20000,0.22750,0.28000,0.34750,0.38750,0.40250,0.41250,0.41750,0.41250,0.38250,0.35000,0.30500,0.24500,0.18000,0.12750,0.08750,0.05250,0.02000,0.00250,0.00500,0.02000,0.02250,0.00750,-0.01250,-0.00750,0.01000,0.01750,0.00000,-0.02250,-0.04750,-0.06250,-0.06000,-0.03000,-0.00500,0.01000,-0.00250,-0.02500,-0.04750,-0.05500,-0.04000,-0.01750,0.01250,0.04250,0.05500,0.03250,-0.00750,-0.04750,-0.07750,-0.10750,-0.10750,-0.10000,-0.10250,-0.11750,-0.12750,-0.11500,-0.10250,-0.09500,-0.10250,-0.10750,-0.10250,-0.05250,0.15000,0.48500,0.65750,0.46000,0.03750,-0.24000,-0.27000,-0.21000,-0.17000,-0.16250,-0.15750,-0.15000,-0.13000,-0.10000,-0.06250,-0.03000,-0.01500,-0.02250,-0.03000,-0.02500,-0.00500,0.02500,0.05250,0.08000,0.10000,0.11500,0.12500,0.14000,0.16000,0.18000,0.19000,0.18750,0.18750,0.17250,0.14000,0.07250,0.00000,-0.06250,-0.10500,-0.13000,-0.14500,-0.14250,-0.12250,-0.08750,-0.07500,-0.07750,-0.08250,-0.06250,-0.03750,-0.03250,-0.02500,-0.01000,0.00750,0.00000,-0.00750,0.00500,0.02500,0.04250,0.04250,0.04500,0.05500,0.06000,0.04750,0.02500,0.01000,0.01500,0.04250,0.07250,0.10000,0.10000,0.10000,0.09250,0.09250,0.08750,0.07500,0.05750,0.03500,0.01250,-0.02000,-0.04250,-0.04250,-0.02750,0.00000,0.01750,0.01250,0.01000,0.07750,0.32000,0.62500,0.66250,0.35250,-0.07250,-0.25750,-0.22750,-0.15250,-0.12500,-0.12500,-0.12250,-0.08500,-0.02250,0.02500,0.04000,0.02000,0.01250,0.02250,0.04250,0.06250,0.06750,0.07250,0.07250,0.09500,0.12250,0.16000,0.18500,0.19250,0.21000,0.22750,0.24500,0.24500,0.23000,0.21250,0.18000,0.11750,0.03500,-0.04750,-0.11000,-0.14500,-0.15750,-0.14000,-0.11250,-0.08250,-0.07000,-0.05500,-0.04500,-0.03750,-0.03250,-0.02000,0.00000,0.02000,0.02500,0.01500,0.00750,0.00250,-0.00500,-0.01750,-0.01500,0.01000,0.05500,0.08250,0.09500,0.08750,0.09500,0.10500,0.11500,0.09500,0.05500,0.00250,-0.03750,-0.05500,-0.04500,-0.02500,-0.01750,-0.01000,-0.01500,-0.00250,0.01000,0.02250,0.01750,0.03250,0.15500,0.43500,0.61750,0.48250,0.09000,-0.21000,-0.23750,-0.15000,-0.09500,-0.09250,-0.09250,-0.08250,-0.07000,-0.05250,-0.03000,0.00500,0.03250,0.04250,0.03000,0.01500,0.00250,0.00250,0.02000,0.05250,0.09000,0.12500,0.14000,0.15750,0.16750,0.18250,0.20250,0.22000,0.22500,0.20000,0.15500,0.09500,0.02000,-0.06000,-0.13000,-0.17000,-0.17500,-0.16250,-0.14000,-0.12000,-0.09750,-0.08750,-0.09000,-0.09250,-0.08500,-0.05250,-0.02500,-0.00750,-0.01250,-0.02750,-0.03750,-0.04000,-0.03750,-0.03500,-0.03000,-0.01750,-0.01250,-0.00750,-0.00500,0.01000,0.02750,0.04250,0.04750,0.04000,0.02500,0.00250,-0.02000,-0.03750,-0.05000,-0.06250,-0.06250,-0.05000,-0.03000,-0.01500,-0.01750,-0.02000,-0.03500,-0.03000,0.02500,0.20500,0.52750,0.69500,0.50500,0.08000,-0.23250,-0.29500,-0.24750,-0.18500,-0.14250,-0.12250,-0.11000,-0.08000,-0.05000,-0.04750,-0.04500,-0.02750,0.01500,0.04500,0.04750,0.03750,0.03500,0.04750,0.06750,0.08750,0.11250,0.14000,0.16500,0.18750,0.21000,0.22750,0.23250,0.22500,0.21750,0.18000,0.11250,0.04250,-0.01000,-0.05750,-0.09500,-0.12000,-0.13250,-0.13750,-0.12750,-0.10500,-0.07250,-0.04750,-0.03250,-0.02250,-0.01000,0.00500,0.00750,-0.00500,-0.02500,-0.02750,0.01250,0.05250,0.05250,0.01000,-0.02250,-0.02000,0.00000,0.02750,0.05750,0.06750,0.07500,0.07250,0.07250,0.05000,0.01750,-0.02000,-0.06500,-0.10000,-0.11000,-0.08750,-0.06250,-0.05250,-0.05000,-0.03750,-0.01750,-0.01500,-0.03250,-0.01000,0.16750,0.48750,0.67750,0.52500,0.13750,-0.16750,-0.25000,-0.22750,-0.18500,-0.15250,-0.12000,-0.09750,-0.07750,-0.04750,-0.01500,-0.00500,-0.00750,-0.01000,-0.00500,-0.00750,-0.01000,-0.00250,0.02000,0.04000,0.05250,0.05750,0.07000,0.10000,0.13000,0.16250,0.17250,0.17750,0.18000,0.16500,0.13750,0.09000,0.03250,-0.02750,-0.09250,-0.12250,-0.13750,-0.13750,-0.13500,-0.13750,-0.13250,-0.12250,-0.10250,-0.10250,-0.11250,-0.10000,-0.07000,-0.03750,-0.02250,-0.02000,-0.02000,-0.03000,-0.03000,-0.02500,-0.01500,-0.01750,-0.02250,-0.02250,-0.00250,0.03000,0.05750,0.06250,0.06000,0.06250,0.06000,0.04750,0.02500,-0.00250,-0.03750,-0.05750,-0.05750,-0.05000,-0.06000,-0.07250,-0.07000,-0.05250,-0.03500,-0.03000,-0.03000,-0.02500,0.02500,0.21750,0.54250,0.70750,0.51250,0.08000,-0.23500,-0.30500,-0.27000,-0.23250,-0.20500,-0.17250,-0.14000,-0.12000,-0.09250,-0.06500,-0.05750,-0.06250,-0.06000,-0.04500,-0.03750,-0.03000,-0.01000,0.03000,0.05500,0.07750,0.09000,0.10250,0.11250,0.13000,0.16750,0.20250,0.23000,0.22250,0.19000,0.12500,0.05500,-0.00250,-0.04250,-0.08000,-0.11000,-0.13250,-0.15000,-0.15750,-0.16250,-0.13500,-0.10250,-0.07250,-0.05500,-0.03750,-0.01250,-0.00250,-0.01250,-0.03000,-0.04000,-0.04500,-0.04000,-0.03500,-0.02500,-0.02000,-0.02250,-0.03250,-0.03000,-0.02250,-0.01250,-0.02000,-0.01750,-0.01000,-0.01000,-0.01750,-0.00750,0.01250,0.01750,-0.00500,-0.02750,-0.02500,0.00000,0.01750,0.02750,0.04000,0.07250,0.10000,0.10500,0.08250,0.03500,-0.01500,-0.05000,-0.06000,-0.06000,-0.05000,-0.03250,-0.02500,-0.04250,-0.06000,-0.04750,-0.03500,-0.03000,0.03000,0.27000,0.60500,0.68750,0.40500,-0.02500,-0.27500,-0.31500,-0.27500,-0.22000,-0.17250,-0.14250,-0.12000,-0.10000,-0.08750,-0.07500,-0.06000,-0.04750,-0.03500,-0.01500,-0.00250,0.01000,0.02250,0.04500,0.06250,0.07250,0.08750,0.11250,0.14250,0.16000,0.16750,0.18750,0.21750,0.26000,0.25250,0.19250,0.09750,0.01000,-0.05250,-0.10750,-0.14000,-0.16250,-0.15750,-0.14000,-0.12500,-0.11500,-0.10750,-0.09750,-0.08500,-0.07250,-0.05000,-0.03000,-0.01500,0.00750,0.02000,0.02000,0.01250,0.01500,0.03500,0.05000,0.05000,0.03250,0.01000,0.00750,0.03250,0.05500,0.06250,0.07750,0.10500,0.14000,0.15000,0.14250,0.12500,0.10250,0.06000,0.02750,0.02250,0.03000,0.02000,-0.01000,-0.02250,-0.00500,0.01750,0.02250,0.01000,-0.01000,-0.00500,0.10750,0.42500,0.71750,0.67000,0.27750,-0.10500,-0.22500,-0.19750,-0.16000,-0.13000,-0.10500,-0.08750,-0.08000,-0.06500,-0.04000,-0.00750,0.02500,0.03500,0.04000,0.05250,0.07000,0.06500,0.06250,0.08000,0.12750,0.16000,0.17250,0.18500,0.20250,0.23000,0.24750,0.26500,0.26250,0.24500,0.19250,0.12750,0.06000,0.00000,-0.05250,-0.09500,-0.11000,-0.11750,-0.11000,-0.11500,-0.11500,-0.11750,-0.08500,-0.04250,0.00250,0.03000,0.03750,0.03000,0.01500,0.00500,0.00000,-0.00750,0.00750,0.03000,0.03750,0.02500,0.02250,0.04000,0.04000,0.02500,0.00750,0.00250,0.00250,0.01750,0.05000,0.08500,0.10750,0.11750,0.11250,0.07750,0.03500,-0.01000,-0.03250,-0.04750,-0.04750,-0.04500,-0.03500,-0.02000,0.00000,0.01750,0.02750,0.02250,0.00000,-0.00750,0.12500,0.47000,0.74000,0.62000,0.18500,-0.17750,-0.27000,-0.24250,-0.21250,-0.17500,-0.12500,-0.07500,-0.05000,-0.03750,-0.03000,-0.02750,-0.01750,-0.00750,0.00500,0.01500,0.03250,0.05250,0.06750,0.06500,0.06500,0.07750,0.09750,0.12750,0.15750,0.18500,0.20500,0.22000,0.22250,0.21500,0.18750,0.13000,0.04250,-0.05250,-0.13500,-0.18500,-0.19500,-0.17500,-0.15500,-0.13250,-0.10500,-0.09500,-0.10500,-0.12250,-0.11750,-0.10000,-0.06750,-0.04000,-0.01750,-0.01500,-0.01250,-0.01000,-0.01000,-0.02250,-0.04750,-0.05000,-0.02000,0.01500,0.03500,0.04750,0.07250,0.07750,0.06500,0.05250,0.05500,0.04500,0.01250,-0.02250,-0.05250,-0.07000,-0.08250,-0.09000,-0.09500,-0.09250,-0.08000,-0.05750,-0.03000,-0.02000,-0.03750,-0.05500,0.01750,0.27750,0.58250,0.60500,0.27750,-0.14000,-0.33000,-0.31250,-0.24250,-0.19250,-0.15750,-0.13500,-0.11000,-0.07750,-0.05500,-0.03000,-0.02000,-0.00500,-0.00250,0.00250,0.03000,0.05250,0.06000,0.04750,0.04500,0.05250,0.06750,0.08250,0.11750,0.17000,0.21250,0.21500,0.18750,0.15750,0.14500,0.12000,0.06750,0.00250,-0.06500,-0.13000,-0.18250,-0.20500,-0.20000,-0.18750,-0.16750,-0.14750,-0.12250,-0.11500,-0.11250,-0.09500,-0.07250,-0.05500,-0.05000,-0.04750,-0.04250,-0.05000,-0.05250,-0.04250,-0.01500,0.00500,0.02250,0.01250,-0.00250,-0.00250,0.03250,0.07250,0.09500,0.09500,0.08500,0.05500,0.00750,-0.04250,-0.06750,-0.06250,-0.04000,-0.03000,-0.04750,-0.06000,-0.05000,-0.03000,-0.00250,0.01000,0.00500,0.02250,0.18750,0.50250,0.66000,0.45500,0.04750,-0.22000,-0.25000,-0.20000,-0.16250,-0.13250,-0.10250,-0.07000,-0.04750,-0.02500,-0.00500,0.01000,0.00250,-0.00750,-0.01000,0.00500,0.02000,0.03500,0.05000,0.06500,0.08000,0.09000,0.10500,0.14000,0.17250,0.20250,0.22500,0.23500,0.22500,0.20000,0.15000,0.08500,-0.00750,-0.08500,-0.13750,-0.16000,-0.16000,-0.15000,-0.14250,-0.13750,-0.12750,-0.11000,-0.09750,-0.08500,-0.04750,0.00000,0.02000,0.00500,-0.01750,-0.01250,0.00250,0.00500,-0.01500,-0.02000,-0.00750,0.02000,0.02500,0.02250,0.03250,0.05250,0.06750,0.06750,0.06500,0.06250,0.05750,0.04250,0.01250,-0.03000,-0.07500,-0.08500,-0.05250,-0.01750,-0.02500,-0.05750,-0.07500,-0.07250,-0.05500,-0.03750,-0.02750,0.00500,0.14500,0.43500,0.63750,0.51500,0.15250,-0.16500,-0.25500,-0.23250,-0.19750,-0.16750,-0.13250,-0.08750,-0.05750,-0.04250,-0.04250,-0.04000,-0.04500,-0.03500,-0.01750,0.01500,0.05000,0.06250,0.04750,0.02250,0.03250,0.06000,0.09000,0.10750,0.12250,0.15000,0.18250,0.20750,0.20500,0.18250,0.14000,0.09000,0.03000,-0.02750,-0.07750,-0.11500,-0.12750,-0.12250,-0.11250,-0.09750,-0.09250,-0.08500,-0.07500,-0.06000,-0.06250,-0.07000,-0.06500,-0.03500,-0.00750,0.00500,0.01000,0.00750,-0.00750,-0.02250,-0.02750,-0.01750,-0.00750,0.00250,0.02750,0.06000,0.07750,0.08750,0.09250,0.10250,0.09250,0.07500,0.06250,0.04000,0.00750,-0.03000,-0.05250,-0.06250,-0.05750,-0.03250,-0.00500,0.02000,0.01750,0.00000,-0.03750,-0.04000,0.08750,0.42500,0.69750,0.61500,0.21000,-0.16750,-0.27750,-0.24750,-0.20500,-0.17500,-0.14750,-0.12250,-0.09500,-0.07250,-0.07250,-0.07250,-0.06500,-0.03500,-0.01250,0.00000,0.00750,0.01000,0.01250,0.00500,0.02500,0.07500,0.12000,0.13750,0.14000,0.15500,0.17000,0.18500,0.19500,0.18250,0.14500,0.09500,0.04500,-0.02000,-0.10250,-0.17000,-0.20750,-0.20750,-0.18500,-0.15500,-0.12000,-0.09500,-0.07250,-0.05750,-0.04750,-0.06000,-0.07250,-0.06750,-0.04500,-0.01750,-0.00500,-0.00750,-0.02000,-0.02250,-0.01500,-0.01500,-0.02500,-0.02250,0.00000,0.01000,0.01750,0.03000,0.05250,0.06750,0.07250,0.06500,0.03750,-0.00250,-0.04750,-0.07750,-0.08500,-0.07000,-0.05250,-0.04750,-0.05000,-0.04500,-0.03750,-0.03250,-0.04500,-0.05000,0.02000,0.27000,0.63750,0.77750,0.50750,0.03750,-0.26250,-0.30250,-0.25750,-0.22000,-0.19000,-0.16500,-0.13500,-0.11250,-0.09250,-0.08000,-0.05500,-0.02750,-0.01500,-0.00250,0.00250,0.01750,0.01250,0.02250,0.04500,0.08250,0.10250,0.12000,0.14250,0.17500,0.20250,0.21250,0.22500,0.22750,0.21250,0.16250,0.10000,0.01500,-0.05500,-0.11750,-0.15250,-0.16500,-0.15250,-0.13250,-0.11500,-0.10000,-0.08750,-0.07750,-0.08000,-0.07500,-0.06000,-0.04250,-0.02250,0.00500,0.03250,0.04250,0.02250,0.00250,-0.01500,-0.02250,-0.02750,-0.01250,0.00750,0.02000,0.02000,0.02000,0.03750,0.06750,0.09750,0.09250,0.06000,0.01750,-0.03250,-0.06750,-0.08750,-0.07750,-0.05500,-0.04000,-0.03750,-0.04500,-0.04000,-0.01250,0.00750,-0.00250,0.01500,0.20750,0.56000,0.72000,0.48000,0.01750,-0.28500,-0.31500,-0.24500,-0.18500,-0.15500,-0.14500,-0.12750,-0.11000,-0.09250,-0.07750,-0.05500,-0.01750,0.00750,0.01750,0.01750,0.02000,0.03500,0.04500,0.05500,0.07500,0.10250,0.13000,0.15000,0.18000,0.21000,0.21000,0.20250,0.20500,0.19250,0.14500,0.07250,0.00750,-0.05000,-0.10500,-0.15500,-0.18750,-0.19500,-0.19250,-0.18250,-0.15750,-0.11750,-0.09750,-0.08750,-0.08500,-0.07250,-0.06250,-0.04500,-0.02750,-0.02000,-0.02250,-0.01750,-0.00750,-0.00250,-0.01250,-0.02000,-0.01250,0.01250,0.04000,0.05000,0.06000,0.06500,0.06750,0.05000,0.02000,-0.01750,-0.04750,-0.07000,-0.07750,-0.06250,-0.04500,-0.03750,-0.03500,-0.01750,0.01000,0.00500,-0.02750,-0.03250,0.08000,0.37250,0.60750,0.52750,0.13750,-0.23000,-0.32750,-0.24500,-0.15000,-0.10000,-0.08000,-0.06000,-0.04500,-0.04250,-0.04500,-0.03750,-0.02250,-0.00750,0.01250,0.02750,0.04500,0.05750,0.07750,0.09750,0.10500,0.11500,0.12750,0.15500,0.19000,0.22500,0.23750,0.23250,0.22500,0.21000,0.16500,0.08250,-0.01250,-0.08750,-0.13750,-0.16000,-0.16500,-0.16000,-0.15000,-0.14250,-0.13500,-0.12000,-0.10500,-0.08750,-0.07000,-0.04500,-0.03500,-0.04000,-0.03500,-0.01500,0.00250,0.00750,0.00250,-0.00250,-0.01500,-0.02500,-0.01750,0.00750,0.02750,0.04250,0.05500,0.06250,0.04500,0.02250,0.00500,0.00250,-0.00500,-0.01500,-0.03000,-0.05500,-0.07500,-0.08500,-0.07750,-0.05250,-0.02500,-0.00750,-0.01500,-0.03500,-0.00750,0.15750,0.49000,0.70000,0.54000,0.12250,-0.19750,-0.25000,-0.18750,-0.14500,-0.13750,-0.14250,-0.12750,-0.09000,-0.05750,-0.04750,-0.04500,-0.04500,-0.03250,-0.01250,0.01750,0.03500,0.04500,0.05250,0.06250,0.07000,0.09000,0.12250,0.16500,0.20750,0.23250,0.24000,0.21000,0.18250,0.16250,0.15750,0.12750,0.06000,-0.02000,-0.09000,-0.12750,-0.13750,-0.14250,-0.14500,-0.14500,-0.12500,-0.09500,-0.07500,-0.06000,-0.06000,-0.05500,-0.04250,-0.01250,0.01500,0.01750,-0.00500,-0.02750,-0.02750,-0.01500,-0.01250,-0.00750,0.01000,0.03500,0.05000,0.06500,0.07750,0.08000,0.06250,0.03250,0.00000,-0.03500,-0.06000,-0.07000,-0.07750,-0.08250,-0.09500,-0.08250,-0.05750,-0.02500,-0.01000,-0.01750,-0.02500,-0.03250,0.01250,0.21000,0.54000,0.69500,0.48500,0.06000,-0.22500,-0.28750,-0.27500,-0.25500,-0.23500,-0.20000,-0.15500,-0.10500,-0.05250,-0.03000,-0.04250,-0.07500,-0.08250,-0.07000,-0.04750,-0.02500,-0.00500,0.00500,0.01250,0.02250,0.05750,0.09250,0.14250,0.17250,0.19000,0.17500,0.15500,0.14750,0.14750,0.13750,0.09500,0.03500,-0.04250,-0.12500,-0.18000,-0.19750,-0.18000,-0.15250,-0.12500,-0.10250,-0.08750,-0.09000,-0.10500,-0.11750,-0.11500,-0.09750,-0.07000,-0.03500,-0.00500,-0.00250,-0.01500,-0.02500,-0.02500,-0.02250,-0.01750,-0.00500,0.01250,0.00500,-0.01250,-0.01500,0.00000,0.02000,0.02750,0.03250,0.03250,0.02250,0.01000,-0.00250,-0.00500,0.00750,0.04500,0.07750,0.09500,0.08000,0.05500,0.05250,0.07750,0.10750,0.11500,0.10750,0.08500,0.05500,0.02250,-0.00250,-0.02500,-0.05250,-0.06500,-0.06750,-0.05250,-0.02250,0.01250,0.02000,0.00000,0.03250,0.25000,0.61750,0.78000,0.53750,0.07750,-0.22000,-0.26000,-0.22000,-0.20000,-0.20500,-0.20000,-0.18750,-0.15250,-0.11750,-0.07000,-0.03250,-0.02000,-0.04250,-0.07000,-0.06750,-0.02750,0.01000,0.03250,0.05000,0.07000,0.08500,0.09750,0.11500,0.14250,0.18000,0.19750,0.21000,0.22500,0.22750,0.19750,0.13250,0.05750,-0.01750,-0.08250,-0.12250,-0.12500,-0.12000,-0.12000,-0.13750,-0.14500,-0.13750,-0.10250,-0.07750,-0.06250,-0.06750,-0.06750,-0.05000,-0.03500,-0.02000,-0.01750,-0.02000,-0.02750,-0.02750,-0.03000,-0.02000,0.00250,0.03250,0.05750,0.07750,0.09500,0.10250,0.08250,0.05000,0.00500,-0.03500,-0.06250,-0.07000,-0.06250,-0.06000,-0.06000,-0.06750,-0.06000,-0.03250,-0.00750,-0.00500,-0.01500,0.05500,0.30750,0.65000,0.75250,0.45250,-0.01250,-0.29000,-0.30750,-0.24250,-0.19750,-0.16500,-0.13500,-0.11500,-0.10750,-0.09500,-0.07500,-0.04750,-0.01500,0.00250,0.00250,-0.02000,-0.02500,-0.02250,-0.00500,0.03250,0.08750,0.13500,0.15750,0.16000,0.16250,0.17000,0.17500,0.18250,0.17500,0.15000,0.10500,0.05250,-0.00750,-0.08250,-0.15500,-0.20000,-0.20750,-0.18500,-0.16250,-0.14250,-0.13250,-0.12250,-0.11250,-0.09750,-0.09250,-0.08250,-0.06500,-0.03500,-0.02500,-0.03750,-0.05500,-0.05750,-0.04000,-0.01500,0.00500,0.00250,-0.01000,-0.02000,-0.02500,-0.03000,-0.01750,0.00750,0.03750,0.06500,0.08500,0.09000,0.08000,0.04500,-0.01000,-0.05500,-0.06250,-0.04750,-0.01750,0.00250,0.00500,-0.01750,-0.03500,-0.03000,-0.02000,-0.01500,-0.02250,0.00250,0.16000,0.49750,0.72250,0.55250,0.07750,-0.29000,-0.35000,-0.25500,-0.18000,-0.13500,-0.08750,-0.04000,-0.02000,-0.02000,-0.03000,-0.03250,-0.02000,-0.00500,0.01000,0.02500,0.03250,0.04000,0.04250,0.05750,0.07250,0.09750,0.12750,0.16500,0.19000,0.19500,0.19000,0.19250,0.20000,0.21250,0.20750,0.15750,0.07000,-0.03000,-0.10250,-0.14750,-0.17000,-0.17750,-0.15750,-0.14500,-0.13000,-0.12250,-0.10750,-0.08000,-0.03250,0.01000,0.01750,-0.00750,-0.02250,-0.01250,-0.00250,0.01000,0.01750,0.02750,0.02750,0.02250,0.02750,0.04000,0.06000,0.07750,0.08250,0.07000,0.02500,-0.03000,-0.07000,-0.07250,-0.04500,-0.02250,-0.00750,-0.01000,-0.00750,-0.00250,-0.00250,-0.00750,-0.00750,0.00750,0.05000,0.24000,0.55500,0.68500,0.42500,-0.03000,-0.30750,-0.30750,-0.22250,-0.15000,-0.10500,-0.08750,-0.09250,-0.08250,-0.05250,-0.01500,-0.00250,-0.01250,-0.02500,-0.01500,-0.00250,0.02750,0.06250,0.10250,0.12000,0.11500,0.11750,0.12750,0.14750,0.18000,0.22250,0.25000,0.24000,0.21500,0.18250,0.12250,0.03250,-0.05750,-0.12250,-0.16750,-0.19000,-0.17750,-0.16750,-0.15500,-0.14250,-0.11750,-0.10750,-0.09500,-0.05750,-0.01750,-0.00250,-0.02250,-0.02750,-0.01000,0.01250,0.00500,-0.01500,-0.01500,-0.00500,0.00250,0.00250,0.00500,0.01750,0.04000,0.07500,0.09250,0.09250,0.07500,0.05250,0.01750,-0.03250,-0.06750,-0.08000,-0.06250,-0.04250,-0.02000,-0.00750,0.00500,0.00250,-0.01750,-0.05250,-0.08500,-0.04000,0.16000,0.52750,0.76250,0.60500,0.15750,-0.21000,-0.29500,-0.24250,-0.19250,-0.17500,-0.16250,-0.14500,-0.12500,-0.10000,-0.07250,-0.05250,-0.04750,-0.03750,-0.02250,-0.01000,-0.00500,-0.00250,0.02250,0.04500,0.07000,0.09000,0.11250,0.13250,0.15750,0.18750,0.20500,0.21500,0.20750,0.18750,0.13250,0.06250,-0.00500,-0.04500,-0.07000,-0.09250,-0.12250,-0.15500,-0.18000,-0.19500,-0.19750,-0.17500,-0.13750,-0.09750,-0.06000,-0.04750,-0.04750,-0.05500,-0.05250,-0.05250,-0.04750,-0.04000,-0.02750,-0.01500,-0.00750,0.01250,0.02250,0.03500,0.02500,0.02500,0.03000,0.03750,0.04250,0.03500,0.01250,-0.03000,-0.07000,-0.07500,-0.05750,-0.04500,-0.05000,-0.05500,-0.06500,-0.07500,-0.07750,-0.06750,-0.06750,-0.07250,0.01000,0.29750,0.69250,0.83000,0.52250,0.01250,-0.31750,-0.37500